
 Phase Region for:
     FCC_A1                        
 col-1=X(C), col-2=X(FE), col-3=MU(C), col-4=MU(FE),
   4.63275E-03   9.95367E-01   4.76084E+01  -1.79949E+04
   9.23192E-03   9.90768E-01   3.99184E+03  -1.80215E+04
   1.37979E-02   9.86202E-01   6.44636E+03  -1.80498E+04
   1.83310E-02   9.81669E-01   8.29144E+03  -1.80798E+04
   2.28316E-02   9.77168E-01   9.80296E+03  -1.81114E+04
   2.73001E-02   9.72700E-01   1.11038E+04  -1.81448E+04
   3.17368E-02   9.68263E-01   1.22595E+04  -1.81799E+04
   3.61420E-02   9.63858E-01   1.33093E+04  -1.82168E+04
   4.05161E-02   9.59484E-01   1.42782E+04  -1.82554E+04
   4.48593E-02   9.55141E-01   1.51837E+04  -1.82957E+04
   4.91721E-02   9.50828E-01   1.60379E+04  -1.83379E+04
   5.34548E-02   9.46545E-01   1.68500E+04  -1.83818E+04
   5.77075E-02   9.42292E-01   1.76268E+04  -1.84275E+04
   6.19308E-02   9.38069E-01   1.83738E+04  -1.84750E+04
   6.61248E-02   9.33875E-01   1.90951E+04  -1.85244E+04
   7.02899E-02   9.29710E-01   1.97942E+04  -1.85755E+04
   7.44264E-02   9.25574E-01   2.04740E+04  -1.86285E+04
   7.85345E-02   9.21465E-01   2.11366E+04  -1.86834E+04
   8.26147E-02   9.17385E-01   2.17841E+04  -1.87402E+04
   8.66670E-02   9.13333E-01   2.24181E+04  -1.87988E+04
   9.06919E-02   9.09308E-01   2.30401E+04  -1.88593E+04
   9.46895E-02   9.05310E-01   2.36512E+04  -1.89217E+04
   9.86603E-02   9.01340E-01   2.42524E+04  -1.89861E+04
   1.02604E-01   8.97396E-01   2.48448E+04  -1.90524E+04
   1.06522E-01   8.93478E-01   2.54291E+04  -1.91206E+04
   1.10414E-01   8.89586E-01   2.60060E+04  -1.91908E+04
   1.14279E-01   8.85721E-01   2.65762E+04  -1.92629E+04
   1.18120E-01   8.81880E-01   2.71402E+04  -1.93371E+04
   1.21934E-01   8.78066E-01   2.76985E+04  -1.94132E+04
   1.25724E-01   8.74276E-01   2.82516E+04  -1.94914E+04
   1.29489E-01   8.70511E-01   2.87999E+04  -1.95716E+04
   1.33229E-01   8.66771E-01   2.93437E+04  -1.96539E+04
   1.36945E-01   8.63055E-01   2.98835E+04  -1.97382E+04
   1.40637E-01   8.59363E-01   3.04194E+04  -1.98245E+04
   1.44305E-01   8.55695E-01   3.09518E+04  -1.99130E+04
   1.47949E-01   8.52051E-01   3.14810E+04  -2.00035E+04
   1.51570E-01   8.48430E-01   3.20071E+04  -2.00962E+04
   1.55167E-01   8.44833E-01   3.25305E+04  -2.01910E+04
   1.58742E-01   8.41258E-01   3.30512E+04  -2.02880E+04
   1.62294E-01   8.37706E-01   3.35695E+04  -2.03871E+04
   1.65823E-01   8.34177E-01   3.40856E+04  -2.04884E+04
   1.69330E-01   8.30670E-01   3.45997E+04  -2.05919E+04
   1.72814E-01   8.27186E-01   3.51118E+04  -2.06975E+04
   1.76277E-01   8.23723E-01   3.56221E+04  -2.08055E+04
   1.79718E-01   8.20282E-01   3.61308E+04  -2.09156E+04
   1.83138E-01   8.16862E-01   3.66380E+04  -2.10280E+04
   1.86536E-01   8.13464E-01   3.71437E+04  -2.11427E+04
   1.89914E-01   8.10086E-01   3.76482E+04  -2.12597E+04
   1.93270E-01   8.06730E-01   3.81515E+04  -2.13790E+04
   1.96606E-01   8.03394E-01   3.86537E+04  -2.15006E+04
   1.99921E-01   8.00079E-01   3.91548E+04  -2.16245E+04
   2.03215E-01   7.96785E-01   3.96551E+04  -2.17508E+04
   2.06490E-01   7.93510E-01   4.01546E+04  -2.18795E+04
   2.09745E-01   7.90255E-01   4.06532E+04  -2.20105E+04
   2.12979E-01   7.87021E-01   4.11513E+04  -2.21440E+04
   2.16195E-01   7.83805E-01   4.16487E+04  -2.22799E+04
   2.19390E-01   7.80610E-01   4.21456E+04  -2.24183E+04
   2.22567E-01   7.77433E-01   4.26420E+04  -2.25591E+04
   2.25724E-01   7.74276E-01   4.31380E+04  -2.27024E+04
   2.28863E-01   7.71137E-01   4.36337E+04  -2.28482E+04
   2.31983E-01   7.68017E-01   4.41291E+04  -2.29965E+04
   2.35084E-01   7.64916E-01   4.46243E+04  -2.31474E+04
   2.38167E-01   7.61833E-01   4.51192E+04  -2.33008E+04
   2.41232E-01   7.58768E-01   4.56141E+04  -2.34568E+04
   2.44278E-01   7.55722E-01   4.61089E+04  -2.36155E+04
   2.47307E-01   7.52693E-01   4.66037E+04  -2.37767E+04
   2.50318E-01   7.49682E-01   4.70985E+04  -2.39406E+04
   2.53311E-01   7.46689E-01   4.75933E+04  -2.41072E+04
   2.56287E-01   7.43713E-01   4.80883E+04  -2.42764E+04
   2.59245E-01   7.40755E-01   4.85834E+04  -2.44483E+04
   2.62186E-01   7.37814E-01   4.90787E+04  -2.46230E+04
   2.65111E-01   7.34889E-01   4.95743E+04  -2.48005E+04
   2.68018E-01   7.31982E-01   5.00701E+04  -2.49807E+04
   2.70909E-01   7.29091E-01   5.05663E+04  -2.51637E+04
   2.73783E-01   7.26217E-01   5.10628E+04  -2.53495E+04
   2.76641E-01   7.23359E-01   5.15597E+04  -2.55382E+04
   2.79482E-01   7.20518E-01   5.20570E+04  -2.57298E+04
   2.82308E-01   7.17692E-01   5.25548E+04  -2.59242E+04
   2.85117E-01   7.14883E-01   5.30531E+04  -2.61216E+04
   2.87910E-01   7.12090E-01   5.35519E+04  -2.63219E+04
   2.90688E-01   7.09312E-01   5.40513E+04  -2.65252E+04
   2.93450E-01   7.06550E-01   5.45513E+04  -2.67315E+04
   2.96197E-01   7.03803E-01   5.50520E+04  -2.69408E+04
   2.98928E-01   7.01072E-01   5.55533E+04  -2.71531E+04
   3.01644E-01   6.98356E-01   5.60553E+04  -2.73686E+04
   3.04345E-01   6.95655E-01   5.65580E+04  -2.75871E+04
   3.07031E-01   6.92969E-01   5.70615E+04  -2.78088E+04
   3.09703E-01   6.90297E-01   5.75659E+04  -2.80337E+04
   3.12359E-01   6.87641E-01   5.80710E+04  -2.82617E+04
   3.15001E-01   6.84999E-01   5.85770E+04  -2.84930E+04
   3.17628E-01   6.82372E-01   5.90840E+04  -2.87275E+04
   3.20241E-01   6.79759E-01   5.95918E+04  -2.89654E+04
   3.22840E-01   6.77160E-01   6.01006E+04  -2.92065E+04
   3.25425E-01   6.74575E-01   6.06105E+04  -2.94510E+04
   3.27996E-01   6.72004E-01   6.11213E+04  -2.96989E+04
   3.30552E-01   6.69448E-01   6.16332E+04  -2.99502E+04
   3.33095E-01   6.66905E-01   6.21462E+04  -3.02050E+04
   3.35625E-01   6.64375E-01   6.26604E+04  -3.04633E+04
   3.38140E-01   6.61860E-01   6.31757E+04  -3.07251E+04
   3.40643E-01   6.59357E-01   6.36923E+04  -3.09904E+04

 Phase Region for:
     FCC_A1                        
 col-1=X(C), col-2=X(FE), col-3=MU(C), col-4=MU(FE),
   4.63275E-03   9.95367E-01   4.76084E+01  -1.79949E+04
   4.64965E-08   1.00000E+00  -5.99551E+04  -1.79700E+04
